#time Xenon_conc radius partial_radius partial_bubble_conc partial_size
0 0 -nan 0 0 0
0.1 2e-10 0.3 0 0 0
1.1 2.2e-09 0.3 0 0 0
11.1 2.22e-08 0.3 0 0 0
111.1 2.22201e-07 0.300001 0 0 0
1111.1 2.2222e-06 0.300095 0 0 0
11111.1 2.2222e-05 0.304441 0 0 0
111111 0.000222223 0.376495 1.06937 1.71114e-15 52.0868
611111 0.00122225 0.510656 1.08496 1.436e-09 54.4917
1.11111e+06 0.00222225 0.589771 1.06161 2.69756e-09 50.8647
1.61111e+06 0.00322226 0.647238 1.06338 2.59995e-08 51.1264
2.11111e+06 0.00422228 0.693883 1.06455 1.28894e-07 51.298
2.61111e+06 0.00522231 0.733774 1.07127 6.09876e-07 52.3391
3.11111e+06 0.00622234 0.768898 1.07652 2.14429e-06 53.1539
3.61111e+06 0.00722236 0.800462 1.08106 5.87543e-06 53.8614
4.11111e+06 0.00822237 0.829247 1.08553 1.32221e-05 54.5629
4.61111e+06 0.00922239 0.855793 1.09031 2.53895e-05 55.3175
5.11111e+06 0.0102224 0.880489 1.09562 4.27997e-05 56.1646
5.61111e+06 0.0112224 0.903626 1.10165 6.4778e-05 57.1346
6.11111e+06 0.0122224 0.925429 1.1085 8.96981e-05 58.2511
6.61111e+06 0.0132224 0.946074 1.11627 0.000115504 59.5311
7.11111e+06 0.0142225 0.965704 1.12495 0.000140319 60.9826
7.61111e+06 0.0152225 0.984434 1.1345 0.000162865 62.6029
8.11111e+06 0.0162225 1.00236 1.1448 0.000182564 64.3785
8.61111e+06 0.0172225 1.01957 1.15568 0.000199414 66.2871
9.11111e+06 0.0182226 1.03612 1.16696 0.000213743 68.3019
9.61111e+06 0.0192226 1.05207 1.17846 0.000225999 70.3959
1.01111e+07 0.0202227 1.06748 1.19004 0.000236611 72.5456
1.06111e+07 0.0212228 1.0824 1.2016 0.000245933 74.7328
1.11111e+07 0.0222229 1.09685 1.21305 0.000254234 76.9446
1.16111e+07 0.0232231 1.11087 1.22437 0.000261708 79.1721
1.21111e+07 0.0242232 1.12449 1.23552 0.000268501 81.4097
1.26111e+07 0.0252234 1.13775 1.2465 0.00027472 83.6536
1.31111e+07 0.0262235 1.15066 1.25729 0.000280449 85.9011
1.36111e+07 0.0272236 1.16324 1.26791 0.000285754 88.1505
1.41111e+07 0.0282237 1.17552 1.27835 0.000290689 90.4004
1.46111e+07 0.0292238 1.18751 1.28862 0.000295298 92.6499
1.51111e+07 0.0302238 1.19923 1.29871 0.000299618 94.8982
1.56111e+07 0.0312238 1.21069 1.30863 0.00030368 97.1448
1.61111e+07 0.0322237 1.22191 1.3184 0.000307512 99.3893
1.66111e+07 0.0332236 1.2329 1.32801 0.000311135 101.631
1.71111e+07 0.0342235 1.24367 1.33746 0.000314569 103.871
1.76111e+07 0.0352234 1.25424 1.34677 0.000317831 106.108
1.81111e+07 0.0362233 1.2646 1.35594 0.000320936 108.341
1.86111e+07 0.0372232 1.27478 1.36497 0.000323897 110.572
1.91111e+07 0.0382231 1.28477 1.37386 0.000326726 112.8
1.96111e+07 0.039223 1.29459 1.38263 0.000329433 115.024
2.01111e+07 0.040223 1.30425 1.39128 0.000332027 117.246
2.06111e+07 0.0412229 1.31374 1.3998 0.000334517 119.464
2.11111e+07 0.0422229 1.32309 1.40821 0.000336909 121.68
2.16111e+07 0.0432228 1.33229 1.4165 0.00033921 123.892
2.21111e+07 0.0442228 1.34134 1.42469 0.000341427 126.101
2.26111e+07 0.0452228 1.35026 1.43277 0.000343564 128.307
2.31111e+07 0.0462228 1.35905 1.44075 0.000345627 130.51
2.36111e+07 0.0472228 1.36772 1.44863 0.00034762 132.709
2.41111e+07 0.0482228 1.37626 1.45641 0.000349547 134.906
2.46111e+07 0.0492229 1.38469 1.46409 0.000351413 137.1
2.51111e+07 0.050223 1.393 1.47169 0.00035322 139.291
2.56111e+07 0.0512231 1.4012 1.4792 0.000354971 141.48
2.61111e+07 0.0522232 1.4093 1.48662 0.000356671 143.665
2.66111e+07 0.0532234 1.41729 1.49396 0.00035832 145.848
2.71111e+07 0.0542236 1.42519 1.50122 0.000359923 148.028
2.76111e+07 0.0552239 1.43299 1.5084 0.000361481 150.205
2.81111e+07 0.0562242 1.44069 1.5155 0.000362997 152.38
2.86111e+07 0.0572244 1.44831 1.52253 0.000364472 154.552
2.91111e+07 0.0582247 1.45583 1.52948 0.000365908 156.722
2.96111e+07 0.059225 1.46327 1.53636 0.000367308 158.889
3.01111e+07 0.0602253 1.47063 1.54318 0.000368672 161.053
3.06111e+07 0.0612256 1.47791 1.54992 0.000370003 163.215
3.11111e+07 0.0622258 1.4851 1.5566 0.000371302 165.374
3.16111e+07 0.063226 1.49222 1.56321 0.00037257 167.531
3.21111e+07 0.0642262 1.49927 1.56977 0.000373808 169.685
3.26111e+07 0.0652263 1.50624 1.57625 0.000375018 171.837
3.31111e+07 0.0662264 1.51314 1.58268 0.000376201 173.986
3.36111e+07 0.0672264 1.51997 1.58905 0.000377358 176.133
3.41111e+07 0.0682264 1.52673 1.59536 0.00037849 178.277
3.46111e+07 0.0692263 1.53343 1.60162 0.000379597 180.42
3.51111e+07 0.0702262 1.54006 1.60781 0.000380682 182.56
3.56111e+07 0.0712261 1.54663 1.61396 0.000381744 184.697
3.61111e+07 0.0722259 1.55314 1.62005 0.000382784 186.833
3.66111e+07 0.0732257 1.55959 1.62609 0.000383804 188.967
3.71111e+07 0.0742256 1.56597 1.63208 0.000384803 191.098
3.76111e+07 0.0752254 1.57231 1.63802 0.000385784 193.227
3.81111e+07 0.0762252 1.57858 1.64392 0.000386745 195.355
3.86111e+07 0.077225 1.5848 1.64976 0.000387689 197.48
3.91111e+07 0.0782248 1.59097 1.65556 0.000388615 199.604
3.96111e+07 0.0792247 1.59709 1.66131 0.000389524 201.725
4.01111e+07 0.0802245 1.60315 1.66702 0.000390416 203.845
4.06111e+07 0.0812244 1.60917 1.67269 0.000391293 205.963
4.11111e+07 0.0822242 1.61513 1.67831 0.000392155 208.08
4.16111e+07 0.0832241 1.62105 1.68389 0.000393001 210.194
4.21111e+07 0.084224 1.62692 1.68943 0.000393834 212.307
4.26111e+07 0.0852239 1.63274 1.69493 0.000394652 214.418
4.31111e+07 0.0862238 1.63852 1.70038 0.000395456 216.527
4.36111e+07 0.0872237 1.64425 1.7058 0.000396248 218.635
4.41111e+07 0.0882236 1.64994 1.71118 0.000397027 220.741
4.46111e+07 0.0892236 1.65559 1.71653 0.000397793 222.845
4.51111e+07 0.0902235 1.6612 1.72183 0.000398547 224.948
4.56111e+07 0.0912234 1.66676 1.7271 0.000399289 227.049
4.61111e+07 0.0922234 1.67228 1.73234 0.00040002 229.148
4.66111e+07 0.0932233 1.67777 1.73753 0.00040074 231.246
